
 CAVITY DIAMETER =    1.00

 CAVITY HEIGHT =    1.00

 APERTURE DIAMETER =    0.25

 FOCAL LENGTH OF CONCENTRATOR =   12.07

 CONC. RIM ANGLE =   45.00 degrees

 CONC. REFLECTIVITY =    0.93

 CONC. SLOPE ERROR =    1.00 milliradians





 DISTANCE FROM          SIDEWALL FLUX
 FOCAL PLANE          (SOLAR CONSTANTS)


      0.0000              0.0000

      0.0250              0.0000

      0.0500              0.0000

      0.0750              0.0000

      0.1000              0.0000

      0.1250              0.0000

      0.1500              0.0000

      0.1750              0.0000

      0.2000              0.0000

      0.2250              0.0000

      0.2500              0.0000

      0.2750              0.0000

      0.3000              0.0000

      0.3250              0.0000

      0.3500              0.0000

      0.3750              0.0000

      0.4000             18.6229

      0.4250             40.4653

      0.4500             65.9211

      0.4750             90.3059

      0.5000            112.7473

      0.5250            132.0411

      0.5500            148.8538

      0.5750            159.1832

      0.6000            165.2127

      0.6250            167.5938

      0.6500            156.4842

      0.6750            142.0872

      0.7000            130.6680

      0.7250            120.3555

      0.7500            112.3105

      0.7750            102.8097

      0.8000             95.4867

      0.8250             89.2336

      0.8500             81.9777

      0.8750             76.1294

      0.9000             71.0335

      0.9250             65.8780

      0.9500             61.7826

      0.9750             57.6172

      1.0000             53.2357

